,time,range,elevation,azimuth,radial_velocity,range_uncertainty,elevation_uncertainty,azimuth_uncertainty,radial_velocity_uncertainty,ID
1,1736300097.0941715,27637.41370137251,9.614525979919318,295.2283363792457,198.8963478606107,66.3102187039684,0.02297842573745599,0.7046810200287124,0.4769614381437309,1.0
2,1736300098.7731116,27647.582234913112,9.860621508029851,294.4742442370506,277.1070508542411,61.97523950857131,0.022107052858867132,0.6613275727520247,0.6214529870427424,2.0
3,1736300099.607005,28662.798668906697,17.106910052404647,299.6101988496723,456.694133631775,15.32507912501963,0.009142923662188898,0.16032195407978184,0.24395722934669675,1.0
4,1736300100.6947298,27568.119418003113,9.997026086706985,294.39232270199494,335.41412728573926,59.3631658992945,0.021598890761636572,0.6365179266204538,0.7248218467828581,3.0
5,1736300101.2706249,28411.498227317028,17.604895993933994,299.21767893594296,569.8948574508021,14.085424610124438,0.00873207162788493,0.14841827456516007,0.2826517257939606,2.0
6,1736300102.0837893,30219.172509833425,24.043932838373102,304.6458584498581,523.6139114293601,6.737104122560645,0.005361649388741566,0.06792059389974979,0.11672668282758734,1.0
7,1736300102.563452,27629.827399545007,9.950232161727051,294.49094022563827,311.0691251118539,60.476980614580995,0.021821959290307846,0.6473856576761229,0.6832890784676845,4.0
8,1736300103.1885333,28079.988027327036,17.94394085028583,298.9588773133216,656.8865902108186,13.271984938094395,0.008470356019001266,0.14104577776613794,0.30993210938909566,3.0
9,1736300103.755643,29852.107728092877,24.897396311274726,303.74601358108873,626.958104422742,6.093525286319597,0.00508094375742106,0.06201788903158028,0.12792895053683723,2.0
10,1736300104.609188,32050.27606242505,29.327846935203294,308.8625800837579,562.9630677219379,4.311561466963714,0.003945070796514899,0.04156089440930075,0.07574188666398456,1.0
11,1736300105.0623872,28188.441266849662,17.80135119449264,299.00479362566506,620.6808881430693,13.604732038169725,0.008580991790035492,0.14415734923513754,0.2992297449262131,4.0
12,1736300105.6893816,29475.230145707577,25.504385373820437,303.54758390108873,706.271270759734,5.655933033516607,0.004894129176290493,0.05823003618255119,0.1355586534199248,3.0
13,1736300106.2733665,31625.786460622952,30.48365843313436,308.03359676395013,662.0872607342745,3.8544046382262898,0.0037155251094902787,0.03754827177134865,0.08069227074860416,2.0
14,1736300107.093364,34045.66178576187,33.49250546389616,312.73223970844236,592.2586148473406,3.267777193937666,0.0032144502349489923,0.030017511390927426,0.05685461557131107,1.0
15,1736300107.351162,27473.15287838276,9.713641711602419,294.955669693266,253.2014176589913,64.16167606105206,0.022625013845239378,0.6871656784349398,0.5893533447944669,5.0
16,1736300107.5593264,29614.65503402874,25.253887580827058,303.60036959260856,673.7001826277349,5.831488697705022,0.004971716227520042,0.05980085969936691,0.13265564406381553,4.0
17,1736300108.1914892,31162.194159217885,31.34212471796201,307.6001928012353,738.5470714829008,3.540101631592199,0.003560121024297944,0.03494435191911635,0.08389276057953117,3.0
18,1736300108.7730165,33594.85095252427,34.93307424423823,311.8957499483146,689.8947052267239,2.8964792669591293,0.0030126129837016523,0.02689673565137735,0.059489309755678475,2.0
19,1736300108.795757,27686.660533073213,10.027117707160375,293.2130609454094,331.6246783016825,58.50424767026978,0.021308202296823037,0.622177191311812,0.6991702049002324,6.0
20,1736300109.6059678,36177.30784569351,36.86465840658066,316.3254492519574,616.6822734390298,2.7222044654910933,0.002773659543053618,0.023799316482379398,0.04639571363388399,1.0
21,1736300109.8508193,28269.517484868753,17.361362276842463,299.7816947964495,538.4560830097292,14.513792347736835,0.008918770012939729,0.15392774571137338,0.2764958858114189,5.0
22,1736300110.0561738,31329.994987168477,30.97303296561356,307.8943112562703,707.2118249559077,3.66521135471903,0.0036242408059160456,0.03601716360129484,0.08272351606039657,4.0
23,1736300110.6940868,33073.97574544534,36.011539733726224,311.50982032428055,765.0296543565312,2.6405859911617635,0.0028751186481719175,0.024868149093620704,0.06107139575952394,3.0
24,1736300111.0474956,27675.27345540806,10.195365184665139,293.50529356122433,338.62122953533196,57.776871612597766,0.021106112541789884,0.6123033554238579,0.7034326726861685,7.0
25,1736300111.2674022,35705.39477066976,38.55796487228944,315.50385137550444,713.6383221738635,2.3979581763104014,0.0025893474631926328,0.021188611765495326,0.047924872060508814,2.0
26,1736300111.293554,28472.111856164385,18.01285571102687,298.4604968807871,643.3394279674579,13.309538400963172,0.008419302323423108,0.13939805005218267,0.30086141311427494,6.0
27,1736300112.1022613,38430.10289327933,39.63270413513591,319.69788403214204,637.272066914723,2.406836783126212,0.0024823173625904147,0.020023419960013715,0.0399161415941691,1.0
28,1736300112.350415,29667.818271382694,24.568595509142153,304.69708368504416,600.6613444840283,6.26548110101907,0.005187781006477573,0.06435035863233121,0.126852398159618,5.0
29,1736300112.5677037,33258.966296478946,35.55436978404762,311.70655612246355,734.2318061868407,2.7421184426774277,0.00293172965431635,0.025702244725476848,0.06053053836691073,4.0
30,1736300113.193031,35157.56232164736,39.82941174695083,315.2002774930873,788.1088706285298,2.174765165858245,0.002463687730421699,0.019496275050623756,0.048747706338881897,3.0
31,1736300113.5478594,28639.9423243152,18.108081136340036,298.18561755082345,651.2177136884094,13.227388613207697,0.008362049695569041,0.1376867413233695,0.3009942502963954,7.0
32,1736300113.77665,37951.05427768349,41.53701530627322,318.94176189405346,734.0457523696277,2.1107062931616563,0.002310138728825798,0.0177385933947482,0.04082381615162803,2.0
33,1736300113.798103,29986.708850490075,25.517057591448676,302.5303972633619,691.0141445567549,5.746874528458483,0.004890384636051869,0.0579866270656631,0.13244785164986095,6.0
34,1736300114.5997763,40766.02447362356,41.91666962677139,322.9091656776608,654.4814788800876,2.2157574487572913,0.002278297700817778,0.017550199370569838,0.03557107017884732,1.0
35,1736300114.8607876,31387.01140514739,30.05969768804606,309.02877603483216,638.0917185603051,3.962470028101983,0.0037961305125561754,0.03903226757602604,0.08055946814339168,5.0
36,1736300115.058774,35351.58279736486,39.29173420089618,315.4018072984201,757.5810992685985,2.2632442665776917,0.002515430629919112,0.020192314367144554,0.04850049334078172,4.0
37,1736300115.6872692,37378.24129795052,42.97530085049363,318.73212666738203,807.9886217393197,1.9074584670368055,0.002192997072797034,0.01626499714509929,0.041230074843585277,3.0
38,1736300116.0406866,30195.47853003304,25.592958683847375,302.02141959986216,696.0789271955108,5.736393979637875,0.004865013734713158,0.05738945644121139,0.13224120317137053,7.0
39,1736300116.2814097,40296.77777747711,44.00601885464041,322.23715554071475,750.6662909576678,1.9370316113709154,0.002115019449440782,0.015488692380993147,0.03608259190450683,2.0
40,1736300116.291279,31793.885435421515,31.297706431947873,306.4334083853567,722.0867524373739,3.6240945390214105,0.003567266571878786,0.03492278548576955,0.08230482209580096,6.0
41,1736300116.5875835,27775.50989429034,9.934519218542665,294.4559582577606,278.3840697993204,61.20706311248342,0.021882266533062675,0.6501147724928166,0.6141147367364256,8.0
42,1736300117.0953467,43175.73417616665,43.80239871621945,325.9016670082819,667.6724439820331,2.099418722541297,0.0021298764632676744,0.015847210677642085,0.032467080997479546,1.0
43,1736300117.3485453,33289.557837352586,34.42498532251742,313.1048383920298,666.4880057644464,2.9799765115462455,0.0030814147684887707,0.02802854014426601,0.059660220316542695,5.0
44,1736300117.5642319,37579.934892273035,42.36590986946393,318.91005631844473,777.6693888791507,1.9880677324299019,0.0022412948146650936,0.01687203919323894,0.04114452594977222,4.0
45,1736300118.1919599,39717.3596747518,45.57979840759741,322.15658614414286,823.9597279207928,1.746447842737008,0.0020043537116513892,0.01416754121579888,0.0362328388078292,3.0
46,1736300118.5426826,32048.71403047468,31.389029453786836,305.76345966259026,725.9000635274066,3.6254757452445205,0.0035509864992577032,0.034579739981616384,0.0821125327040073,7.0
47,1736300118.771089,42734.04794125105,46.04439634732368,325.40725368305897,763.02695805033,1.8313669644052866,0.001973377229635788,0.013945960896349944,0.03270041779979814,2.0
48,1736300118.791568,33815.53137344806,35.93619844013261,310.0026386951617,748.3578570280171,2.7143473045943844,0.0028845605696873745,0.024881764939212306,0.06007040445096854,6.0
49,1736300119.0840914,28601.82472152744,17.658987376951043,298.64729069299887,568.3092984099912,14.039237295624272,0.008677574469446244,0.1467274078319088,0.2788954517799897,8.0
50,1736300119.5995805,45646.04335203112,45.363768081697586,328.77861232082404,676.9233324526609,2.0316859540186822,0.002019108221429607,0.014634679512495523,0.030131311934280963,1.0
51,1736300119.8472855,35357.73353472851,37.956622554964795,316.8699419693973,690.478187166786,2.470174974355855,0.0026520581320632823,0.022140513551732827,0.04824155764489689,5.0
52,1736300120.059886,39917.42605183458,44.91295967353219,322.31635560131184,794.105781879607,1.8221339838255992,0.0020500724293297376,0.014713088168415746,0.03624788566887629,4.0
53,1736300120.6935806,42139.04681896852,47.733974844594826,325.4851776923115,835.1987627253684,1.6488642376415186,0.0018678166033521265,0.012736121919307737,0.03268025689472008,3.0
54,1736300121.0401866,34118.6394086208,36.03863578035128,309.06582095082564,751.7016457197527,2.7180060252619818,0.0028715915551416464,0.024627943956951764,0.05988813088293456,7.0
55,1736300121.2630267,45226.395499261605,47.73227463786386,328.4344020405897,770.769375260285,1.7697180922628977,0.001867882209314742,0.012851828634215494,0.03016140256384962,2.0
56,1736300121.2859275,35993.10178627843,39.73990855001238,313.3930232812141,771.4152991390448,2.2397802292804814,0.0024725303705651967,0.019499290009201004,0.04800548492394939,6.0
57,1736300121.594515,30127.16498026052,24.959809891245836,303.25750129190334,623.0880353910237,6.113845125976265,0.005062258997481536,0.061527647998863816,0.1263643144146412,8.0
58,1736300122.1017795,48147.6776333648,46.64222712184059,331.48521992180747,682.4793721374022,1.9974452920645729,0.0019349930951652675,0.013751815453463247,0.02831419541364547,1.0
59,1736300122.3552012,37543.396405969004,40.85149283518046,320.4733461603442,711.0758571162423,2.1775333789962126,0.0023695239072199447,0.01858761454249194,0.04123853630827057,5.0
60,1736300122.5544474,42342.47680939284,47.01738333345985,325.5725241709201,805.8698094397961,1.7214795053955492,0.0019115319508560742,0.013237155767210679,0.032763569947138985,4.0
61,1736300123.1819277,44628.64488005145,49.514906449471795,328.6738448684873,841.62298421159,1.5921924290876384,0.0017664362869789158,0.011725867884859171,0.030025700177688977,3.0
62,1736300123.5464773,36335.556245034975,39.85856494194773,312.39987330621875,774.5171001283761,2.243247034295242,0.0024607402231693475,0.019282941209167143,0.047817228810452875,7.0
63,1736300123.765967,47758.79384589931,49.12255227180083,331.2883829567802,774.7622563667738,1.7382224702867248,0.0017878859381450483,0.012057755676713558,0.028197781827724793,2.0
64,1736300123.79735,38305.69952001943,42.884300289260246,316.61188844297334,791.364330996749,1.9653073761664819,0.002200099753363817,0.016244209658096004,0.040598617547191795,6.0
65,1736300124.0901587,31972.157361422647,30.536081232708483,307.2131844558735,657.1431167058659,3.881044330867957,0.0037062733373760593,0.03730214843633364,0.07977527980148455,8.0
66,1736300124.6010728,50675.19805240786,47.69092886815835,334.0395100266728,685.1939926670702,1.9873356653044332,0.0018703526372428345,0.013099598371618611,0.026872807021972433,1.0
67,1736300124.8537142,39839.35387524721,43.23770490097272,323.8925372527247,728.0300841268119,2.00160587392512,0.002172595925111932,0.01627515702528756,0.03658298578733992,5.0
68,1736300125.0580165,44830.420067207546,48.752718453054555,328.7011670753656,812.9135030142045,1.6629932477285987,0.0018085615063461336,0.012193681553245779,0.03015600296499805,4.0
69,1736300125.6982017,47162.77515581319,50.97135269430373,331.7199020050135,844.1594651550799,1.5634546105623566,0.0016897934946554511,0.010996326112980124,0.027984515556567547,3.0
70,1736300126.0419674,38689.57800787575,43.0327245659725,315.45979060925504,794.1880456554173,1.9677593160800433,0.002188537448543643,0.016044312455826826,0.04039017504325449,7.0
71,1736300126.2745626,50315.593749426356,50.261951457586335,333.9839048397381,775.8017373264267,1.7283221560361706,0.0017264463236835038,0.01147253168508142,0.026647977006233607,2.0
72,1736300126.295386,40729.50047083945,45.50516369525756,319.7984084110774,807.0177130836527,1.7982966006110208,0.002009246601242467,0.014119308581421703,0.03563195280399601,6.0
73,1736300126.582416,33997.71294814171,34.980615359650486,310.9462627988155,684.7031870967563,2.9216901759326954,0.0030063049103170457,0.026723378827126987,0.0588413848748994,8.0
74,1736300127.1038551,53213.63755093594,48.54729443475583,336.4233247805002,685.6907220709113,1.9952833895718582,0.0018203136165205697,0.012614123996082645,0.0257113074945937,1.0
75,1736300127.3588648,42207.80411904515,45.20357249170487,327.15408634030626,741.12815166481,1.8956215819575757,0.0020300573100091464,0.014693489760798376,0.03328509900831416,5.0
76,1736300127.5540679,47360.862076802165,50.18005360514565,331.6728235365922,816.1880107636882,1.6333425756006357,0.0017306452944105613,0.011438872702906928,0.028146901433440032,4.0
77,1736300128.2039292,49723.71547568366,52.16686285046659,334.5779619899476,843.7985149300798,1.5546654628887584,0.0016311064605571814,0.010461499786785476,0.02638201244521314,3.0
78,1736300128.5464137,41156.17863702114,45.68153756233207,318.48286351549456,809.439274505792,1.799389237963449,0.0019974393336969036,0.013925819632314224,0.03539197343967501,7.0
79,1736300128.769271,52885.93347576733,51.19271329700823,336.5390242874977,774.5951676722065,1.734485089278829,0.0016788659311309786,0.011037545278728137,0.025403966298043517,2.0
80,1736300128.795173,43230.03661403709,47.69228815812883,322.8063958239035,817.6380099836923,1.6954845239340819,0.0018703120638391385,0.012659846386507996,0.032064296619266075,6.0
81,1736300129.0918014,36169.727318183875,38.611069514399425,314.4188790372804,708.3594530456293,2.420431646522341,0.002583668840655587,0.02103802700495196,0.04739928803506035,8.0
82,1736300129.5898514,55751.05145834605,49.23932280340714,338.655364853869,684.4208193985766,2.0172034518183666,0.001781470038247435,0.01225264592885802,0.024763037169228418,1.0
83,1736300129.8561463,44640.00059142509,46.81286595914065,330.2515194698731,749.8982807261162,1.835008754125378,0.0019242699601342544,0.013575619525068368,0.03082536698487221,5.0
84,1736300130.0611708,49917.94460612781,51.35064878395083,334.48303721877676,816.4860644520453,1.6243124556843254,0.0016709339279061867,0.010884580497265733,0.026566804436772225,4.0
85,1736300130.6933942,52299.99116407334,53.14235411739729,337.346177098076,841.2046894548882,1.5606778463776725,0.0015857955143838269,0.010066287938676777,0.0251020375843735,3.0
86,1736300131.0533483,43699.598510070966,47.89748606735638,321.39932304644094,819.4876520349845,1.6950167817388233,0.0018580025097266327,0.012467314015994138,0.03178677839000357,7.0
87,1736300131.27788,55459.381484178666,51.94392878184236,338.94438740926336,771.6893804145014,1.7529991913210188,0.001641870617849641,0.01071372912369635,0.024391214734458523,2.0
88,1736300131.288583,45799.71458469879,49.511481845440244,325.74493191573873,823.4288193251512,1.6340363512698894,0.0017664508977503657,0.011621689215051917,0.02937698204834928,6.0
89,1736300131.5973077,38471.31189379138,41.607978584074694,317.6845597514887,728.6966222805883,2.1303307230554336,0.00230410012926029,0.01759206963936273,0.04034975573010433,8.0
90,1736300132.1042118,58286.250120286706,49.78994704212619,340.7359506187024,681.719477503456,2.050265440576319,0.0017513819613964902,0.011985696290428973,0.023980456173193353,1.0
91,1736300132.351689,47116.5630015928,48.13073204794687,333.22081803251876,754.9295371115567,1.8056055358356728,0.0018444333392261167,0.012768500242077348,0.028929880298553947,5.0
92,1736300132.5671144,52490.09357742633,52.3005000653972,337.16241213592053,814.4898894921873,1.630601322645392,0.001624798077412708,0.010474256474598495,0.025302777050171726,4.0
93,1736300133.199478,54879.28553322484,53.92826080227841,339.92788757842396,836.9500904233237,1.57804451644781,0.0015506739608066036,0.009774050410178954,0.024064838167811884,3.0
94,1736300133.5469441,46299.41548594446,49.75353724276423,324.22313691885347,824.6443064632349,1.6318348533832803,0.001753472813114135,0.01142668987035407,0.029064421740186613,7.0
95,1736300133.7667403,58030.224248360246,52.549470148622625,341.2342034022626,767.3969590065963,1.781294625930795,0.001613120140922864,0.010474228119461627,0.023556918535302934,2.0
96,1736300133.7889144,48407.33847820764,51.02466376380106,328.5320604372344,825.4582503959857,1.6007408890335106,0.0016872726721465774,0.010864365750010912,0.027295447617254054,6.0
97,1736300134.0885155,40870.8717547226,44.09778082051414,320.82627724224125,745.1098311364159,1.9539159273564588,0.002108157233216843,0.015338091497327873,0.03561921684292158,8.0
98,1736300134.5979238,60811.407643736246,50.226481090938975,342.7011868133362,678.0121370703192,2.0924597902695727,0.0017282642159569977,0.011792436310179448,0.023328929143225874,1.0
99,1736300134.8572197,49618.05176484831,49.20051042807631,335.96568487491504,757.0122024469867,1.7986674815215566,0.0017835087447044488,0.012178126848358234,0.027440956477205954,5.0
100,1736300135.0715463,55064.28186634267,53.07214082101207,339.65367122773034,810.8491119590443,1.6486557455152506,0.0015890142636972027,0.010170261368205183,0.024277121267173716,4.0
101,1736300135.6901786,57458.30630999063,54.561140918409556,342.370297585025,831.4153710507559,1.604381132082686,0.0015234672550130596,0.009559649787878011,0.02321415074666661,3.0
102,1736300136.0450084,48940.361989872144,51.298313597476124,326.9240386185866,826.1632611082437,1.596633171191916,0.001673502607067282,0.010664506742849059,0.026950471013447237,7.0
103,1736300136.2778356,60585.55078153878,53.02940270719632,343.3525306622332,762.0867509812298,1.8175454299154445,0.00159090536491686,0.010300093710455212,0.022862819032555427,2.0
104,1736300136.2956867,51037.343628076174,52.27637955424426,331.203537408663,824.552628809903,1.58746304452108,0.0016260168235142215,0.010301858968304434,0.025647189471119332,6.0
105,1736300136.5900016,43353.26405311586,46.17173236559933,323.85452159734996,756.9166728465813,1.8456096762093228,0.0019654619623666143,0.013787313535197132,0.03222294107713617,8.0
106,1736300137.105743,63317.482036990026,50.560446492619064,344.5504522401358,673.341357126462,2.142331539562512,0.001710786762517909,0.011657807101455453,0.0227827571534828,1.0
107,1736300137.3492553,52139.89867292382,50.0626473364482,338.55029448910096,756.8203839176293,1.8085357646480162,0.0017367255835393559,0.01174398689461932,0.02625335820906418,5.0
108,1736300137.5703053,57635.209256648195,53.68929559679257,342.05184967940204,805.8846890827124,1.6760171112634528,0.0015612804244409056,0.009946752384299007,0.023434931095570842,4.0
109,1736300138.1988904,60023.194056570275,55.05805066234305,344.66176852262566,824.8407489239987,1.6379933137541247,0.0015025162173445611,0.009405378316582691,0.022509357480410955,3.0
110,1736300138.5422316,51606.17847529941,52.588379474829175,329.4719532022373,824.7632626998262,1.581279097642528,0.0016113632953728841,0.010095421896858197,0.025271375172212184,7.0
